Percent,Energy in nJ
0,0
0.3728,0.2268
0.5819,0.6048
0.7136,1.0836
0.8645,1.638
0.9129,2.3436
0.9729,3.024
0.982,3.9816
0.9861,4.914
0.9919,5.8968
0.9979,7.0056
0.9985,8.1648
0.999,9.2736
0.9993,10.5336
0.9995,11.6928
0.9996,13.0032
0.9997,14.3892
0.9999,15.7248
1,16.9848